Time, Position x, Position y, Position z, Rotation x, Rotation y, Rotation z, Angular Velocity x, Angular Velocity y, Angular Velocity z, Velocity x, Velocity y, Velocity z, Throttle, Brake, Steering
0, -1.29, 0.4999985, -32.73, -6.854969E-09, 0.06975646, -1.396983E-09, 0, 0, 0, 0, -0.1962, 0, 0.06148392, 0, -0.02343884
0.02, -1.29, 0.4960745, -32.73, -6.854969E-09, 0.06975646, -1.396983E-09, 0, 0, 0, 0, -0.3924, 0, 0.07835194, 0, -0.02375223
0.0976961, -1.29, 0.4433986, -32.73, -6.854969E-09, 0.06975646, -1.396983E-09, 0, 0, 0, 0, -0.981, 0, 0.05963538, 0, -0.02348484
0.1053371, -1.29, 0.4348556, -32.73, -6.854969E-09, 0.06975646, -1.396983E-09, 0, 0, 0, 0, -1.1772, 0, 0.0619461, 0, -0.02349974
0.1611514, -1.29, 0.3567013, -32.73, -6.854969E-09, 0.06975646, -1.396983E-09, 0, 0, 0, 0, -1.7658, 0, 0.07488587, 0, -0.0235295
0.2053003, -1.29, 0.2727393, -32.73, -6.854969E-09, 0.06975646, -1.396983E-09, 0, 0, 0, 0, -2.1582, 0, 0.06125274, 0, -0.02353421
0.238892, -1.29, 0.1965351, -32.73, -6.854969E-09, 0.06975646, -1.396983E-09, 0, 0, 0, 0, -2.3544, 0, 0.07604123, 0, -0.02352637
0.2721348, -1.289986, 0.1255181, -32.72978, -0.0004389135, 0.06975719, 2.14582E-05, -0.0389909, 1.898491E-05, 0.004760833, -0.0006936628, -2.017509, -0.003390355, 0.07534805, 0, -0.02353207
0.3054714, -1.289923, 0.06669414, -32.72923, -0.001377211, 0.06975754, 7.131932E-05, -0.07055761, 1.289575E-05, 0.008804406, -0.0002832364, -1.493988, -0.001924928, 0.06055956, 0, -0.02353137
0.3399972, -1.289812, 0.02129278, -32.72834, -0.002697949, 0.06975752, 0.0001439651, -0.08000221, 7.442616E-06, 0.01006573, 7.735158E-06, -1.18514, -6.211153E-05, 0.07581022, 0, -0.02353245
0.3719144, -1.289683, -0.002763693, -32.72733, -0.004049911, 0.06975704, 0.0002212483, -0.08382785, -1.531621E-05, 0.01077288, 0.0003637976, -0.5602893, 0.002988213, 0.06841607, 0, -0.02353165
0.4051086, -1.289551, -0.0127598, -32.7263, -0.005368738, 0.06975621, 0.0002998726, -0.07083764, -2.869565E-05, 0.009376702, 0.0003488657, -0.01171018, 0.003458489, 0.0624081, 0, -0.02353112
0.4388171, -1.289438, -0.008988781, -32.72542, -0.006475541, 0.06975521, 0.0003698913, -0.06077554, -3.067822E-05, 0.008210047, 0.0002747558, 0.2091876, 0.002923847, 0.07812095, 0, -0.02352678
0.4728648, -1.289356, 0.005923387, -32.72482, -0.007253106, 0.06975425, 0.0004243532, -0.03688724, -3.01597E-05, 0.005360185, 0.0001070803, 0.5313351, 0.001358147, 0.06171492, 0, -0.02353138
0.5054266, -1.289313, 0.02600411, -32.72453, -0.007633789, 0.06975348, 0.000457723, -0.007617211, -2.812579E-05, 0.001742464, 1.093824E-05, 0.6843663, 0.0001699637, 0.0621771, 0, -0.02353391
0.5397394, -1.289304, 0.04984352, -32.72454, -0.007621522, 0.06975294, 0.0004702485, 0.006951706, -2.389062E-05, -0.000106726, 3.452766E-05, 0.7024579, 8.814458E-05, 0.07581022, 0, -0.02353251
0.57213, -1.289327, 0.07163678, -32.7248, -0.007218648, 0.0697528, 0.0004589898, 0.03228118, -1.110998E-05, -0.003426042, 0.0001868372, 0.6473382, 0.0009172516, 0.06263927, 0, -0.02352923
0.6043898, -1.289366, 0.09094451, -32.72517, -0.006632387, 0.06975292, 0.0004360522, 0.03860673, 5.388393E-06, -0.004314853, 0.0002201917, 0.529572, 0.001843937, 0.07396169, 0, -0.02352972
0.6399221, -1.289414, 0.108093, -32.7256, -0.005897854, 0.06975327, 0.0004036674, 0.04308467, 9.334509E-06, -0.005006234, 0.0003413237, 0.4461549, 0.002417497, 0.06356346, 0, -0.02352896
0.6722297, -1.28947, 0.1189423, -32.72608, -0.005037568, 0.0697538, 0.0003576401, 0.0572078, 2.131858E-05, -0.007251675, 0.0006183026, 0.2864504, 0.003973339, 0.06125274, 0, -0.02353319
0.7054784, -1.289538, 0.1258089, -32.72662, -0.004064489, 0.06975444, 0.0002999515, 0.05818731, 2.508051E-05, -0.007738051, 0.0006086148, 0.1176916, 0.004632339, 0.07557923, 0, -0.02352841
0.7399139, -1.28961, 0.1283409, -32.72715, -0.003072364, 0.06975509, 0.0002362804, 0.05652203, 2.568319E-05, -0.007687096, 0.0006022867, 0.04157563, 0.004670629, 0.06333245, 0, -0.02353333
0.7729653, -1.289676, 0.1267343, -32.7276, -0.002213275, 0.06975564, 0.000176213, 0.04876127, 2.42682E-05, -0.00696104, 0.0004964048, -0.08366971, 0.004097193, 0.0619461, 0, -0.02352745
0.805529, -1.289735, 0.1226246, -32.72797, -0.001505061, 0.06975609, 0.0001224671, 0.03657147, 1.877466E-05, -0.005558013, 0.0003328318, -0.1654193, 0.002924958, 0.07557923, 0, -0.02352904
0.8385174, -1.289784, 0.1167142, -32.72827, -0.0009615819, 0.06975641, 7.646725E-05, 0.0296317, 1.565081E-05, -0.00470751, 0.0002448117, -0.1898546, 0.00226279, 0.06333245, 0, -0.02352837
0.8711969, -1.28982, 0.1099962, -32.72846, -0.0006282577, 0.0697566, 4.245519E-05, 0.01504951, 7.659766E-06, -0.002823875, 8.268598E-05, -0.2098415, 0.001010137, 0.06471881, 0, -0.02352928
0.906503, -1.289842, 0.1027089, -32.72854, -0.0004793024, 0.06975669, 1.912336E-05, 0.0008343601, -9.530394E-07, -0.0008672157, -3.940029E-05, -0.1984365, 3.144561E-05, 0.07719658, 0, -0.02352225
0.9380337, -1.289848, 0.09671304, -32.72852, -0.0005244355, 0.06975665, 1.077738E-05, -0.005682248, -5.081449E-06, 7.484001E-05, -8.329302E-05, -0.1839651, -0.000332851, 0.06102174, 0, -0.0235256
0.9709613, -1.289834, 0.09073497, -32.72836, -0.0007945376, 0.06975646, 1.923028E-05, -0.0167984, -1.232494E-05, 0.001787105, -8.976048E-05, -0.1891946, -0.0008858828, 0.07511704, 0, -0.0235232
1.004408, -1.289812, 0.08505249, -32.72816, -0.001134353, 0.06975622, 3.476104E-05, -0.02437573, -1.51094E-05, 0.003045716, -0.0001745554, -0.1415826, -0.001138191, 0.07188197, 0, -0.02352444
1.038664, -1.289778, 0.08070815, -32.72788, -0.001579925, 0.0697559, 6.049998E-05, -0.02707393, -1.587988E-05, 0.003537699, -0.0001778666, -0.1145324, -0.001190745, 0.06263927, 0, -0.02353001
1.072264, -1.289737, 0.07805295, -32.72758, -0.002073175, 0.06975555, 9.306824E-05, -0.02981795, -1.554802E-05, 0.004151997, -0.0001707518, -0.06144692, -0.001193553, 0.07581022, 0, -0.02352833
1.105274, -1.289694, 0.07675455, -32.72727, -0.002568478, 0.06975518, 0.0001286347, -0.02924293, -1.266507E-05, 0.004271072, -0.000153399, -0.01534775, -0.001113566, 0.0621771, 0, -0.02353278
1.138648, -1.289649, 0.07660504, -32.72697, -0.003049234, 0.06975487, 0.0001656794, -0.02806616, -1.075693E-05, 0.004187401, -0.000144794, 0.004002035, -0.001060132, 0.06749171, 0, -0.02353252
1.171214, -1.289609, 0.0774016, -32.72672, -0.003472874, 0.06975459, 0.0002005191, -0.02440363, -6.051887E-06, 0.003786921, -0.0001241288, 0.03385264, -0.000932614, 0.07511704, 0, -0.02352957
1.206322, -1.28957, 0.07891015, -32.72647, -0.003863541, 0.06975438, 0.0002345694, -0.01913771, -1.473723E-06, 0.003097841, -9.486291E-05, 0.05155298, -0.0007588085, 0.06333245, 0, -0.02352858
1.238113, -1.289541, 0.08063347, -32.7263, -0.004142009, 0.06975428, 0.0002604623, -0.01602184, 1.05812E-06, 0.002657605, -7.670914E-05, 0.05612071, -0.0006496884, 0.07581022, 0, -0.02353434
1.271223, -1.289519, 0.08254807, -32.72618, -0.004338538, 0.06975425, 0.0002803973, -0.009329394, 5.273518E-06, 0.001664875, -3.573483E-05, 0.05760784, -0.0003951387, 0.07673458, 0, -0.02353432
1.304441, -1.289501, 0.08462716, -32.72607, -0.004510934, 0.0697543, 0.0002974788, -0.008525327, 7.302672E-06, 0.00144303, -3.641138E-05, 0.06154771, -0.000377579, 0.06079074, 0, -0.02353162
1.33882, -1.289487, 0.08663993, -32.726, -0.004632996, 0.06975438, 0.0003096194, -0.00580249, 8.488613E-06, 0.0009988702, -1.537183E-05, 0.05602087, -0.0002600076, 0.07511704, 0, -0.02353155
1.371217, -1.28948, 0.08827496, -32.72596, -0.004703935, 0.0697545, 0.000316095, -0.006334305, 1.089803E-05, 0.0009325183, -7.613673E-05, 0.05226086, -0.0003015589, 0.07234415, 0, -0.02352882
1.405413, -1.289473, 0.0898204, -32.72591, -0.00478692, 0.06975462, 0.0003217428, -0.002925149, 7.227351E-06, 0.0003389278, 4.147561E-06, 0.03596558, -0.0001388668, 0.0621771, 0, -0.02353366
1.437929, -1.289471, 0.09083125, -32.72589, -0.004819675, 0.06975471, 0.0003224179, -0.001260073, 6.250771E-06, 5.422651E-05, 1.751215E-05, 0.02710618, -5.808811E-05, 0.07788994, 0, -0.02353443
1.45814, -1.289471, 0.09122017, -32.72589, -0.004818204, 0.06975478, 0.0003207083, 0.0002925778, 4.966127E-06, -0.0002056103, 2.933759E-05, 0.01834694, 1.842334E-05, 0.06425682, 0, -0.0235383
1.488118, -1.289475, 0.09147269, -32.72591, -0.004788512, 0.06975485, 0.0003156418, 0.002949357, 2.270672E-06, -0.0006336114, 4.770834E-05, 0.002303138, 0.0001512562, 0.07696559, 0, -0.02353581
1.521684, -1.289482, 0.09139228, -32.72594, -0.004726157, 0.0697549, 0.0003075394, 0.004804521, -7.708677E-07, -0.0009020391, 5.618742E-05, -0.01018292, 0.0002429067, 0.0619461, 0, -0.02353887
1.554666, -1.289491, 0.09099132, -32.726, -0.004641723, 0.06975492, 0.0002980152, 0.005395918, -2.298285E-06, -0.0009723289, 5.725573E-05, -0.01458979, 0.0002707251, 0.06957143, 0, -0.02353239
1.588059, -1.289501, 0.09039778, -32.72606, -0.00454427, 0.06975492, 0.0002880412, 0.006006585, -3.975774E-06, -0.001011434, 5.456409E-05, -0.01980624, 0.0002961598, 0.07581022, 0, -0.02353398
1.621337, -1.28951, 0.0897169, -32.72611, -0.004442986, 0.06975489, 0.0002785467, 0.005952122, -4.652542E-06, -0.0009397289, 4.706798E-05, -0.02086389, 0.0002877545, 0.06287028, 0, -0.02353428
1.655619, -1.28952, 0.0890121, -32.72617, -0.00434192, 0.06975486, 0.0002699946, 0.005721285, -4.822412E-06, -0.0008722624, 4.215339E-05, -0.02015251, 0.0002738302, 0.07511704, 0, -0.02353434
1.688087, -1.289528, 0.08840948, -32.72623, -0.004254864, 0.06975481, 0.000263439, 0.004953689, -4.33661E-06, -0.0006958692, 3.122298E-05, -0.01699416, 0.0002325939, 0.06102174, 0, -0.02353119
1.708276, -1.289531, 0.08808395, -32.72626, -0.004206571, 0.06975478, 0.0002601889, 0.004457445, -3.91732E-06, -0.0005959138, 2.563752E-05, -0.0148363, 0.0002074681, 0.07627241, 0, -0.02353377
1.738071, -1.289536, 0.08768439, -32.72629, -0.004144693, 0.06975475, 0.0002565446, 0.003912294, -3.26295E-06, -0.0004935005, 2.020389E-05, -0.01246592, 0.0001806249, 0.06287028, 0, -0.02353548
1.771487, -1.289546, 0.08705005, -32.72638, -0.004005173, 0.06975474, 0.0002482486, 0.008650458, -1.621214E-06, -0.001117809, 5.736654E-05, -0.01823607, 0.0004099758, 0.06125274, 0, -0.02353455
1.7914, -1.289553, 0.08671556, -32.72643, -0.003919835, 0.06975474, 0.0002433029, 0.00841543, -1.133568E-06, -0.001075245, 5.089668E-05, -0.0156821, 0.0003940216, 0.07188197, 0, -0.02353306
1.808213, -1.289558, 0.08647422, -32.72647, -0.00385028, 0.06975476, 0.0002393497, 0.008017247, -3.042696E-07, -0.001015916, 4.594286E-05, -0.01291996, 0.0003720548, 0.07442386, 0, -0.02352798
1.838245, -1.289567, 0.08613706, -32.72654, -0.003733974, 0.06975479, 0.000232867, 0.007488947, 1.870303E-07, -0.0009418669, 4.080117E-05, -0.01010343, 0.000345118, 0.06287028, 0, -0.02352463
1.858709, -1.289573, 0.08598149, -32.72658, -0.003662827, 0.06975483, 0.0002289659, 0.006855357, 8.707566E-07, -0.0008581541, 3.556941E-05, -0.007345527, 0.0003141387, 0.07581022, 0, -0.02353405
1.875358, -1.289577, 0.08589898, -32.72662, -0.003610922, 0.06975485, 0.0002261511, 0.006141686, 1.127664E-06, -0.0007650873, 3.02534E-05, -0.004739299, 0.0002801447, 0.06263927, 0, -0.02354119
1.892665, -1.28958, 0.08584715, -32.72665, -0.003562264, 0.06975486, 0.0002235101, 0.0053855, 1.861997E-06, -0.0006716744, 2.537235E-05, -0.002335414, 0.0002447861, 0.0621771, 0, -0.023548
1.921778, -1.289586, 0.08582889, -32.72669, -0.003492657, 0.06975489, 0.000219707, 0.003815122, 2.231189E-06, -0.0004808876, 1.610001E-05, 0.001657009, 0.000172502, 0.06402563, 0, -0.02353797
1.941514, -1.289589, 0.08586381, -32.72671, -0.003455365, 0.06975493, 0.0002176279, 0.003033564, 2.406519E-06, -0.0003882929, 1.187337E-05, 0.003168121, 0.0001368157, 0.06333245, 0, -0.02351911
1.957968, -1.289591, 0.08591568, -32.72673, -0.003430245, 0.06975495, 0.0002161829, 0.003033564, 2.406519E-06, -0.0003882929, 1.187337E-05, 0.003168121, 0.0001368157, 0.07396169, 0, -0.02350749
1.988868, -1.289594, 0.08605477, -32.72675, -0.003397456, 0.069755, 0.0002141534, 0.001527673, 2.237977E-06, -0.0002102659, 4.03724E-06, 0.0051869, 6.812085E-05, 0.06171492, 0, -0.02352064
2.007928, -1.289595, 0.08615793, -32.72675, -0.003385655, 0.06975502, 0.0002133076, 0.0008093831, 2.155735E-06, -0.0001251108, 3.596076E-07, 0.005742118, 3.521917E-05, 0.07419269, 0, -0.02353189
2.02469, -1.289595, 0.08625546, -32.72676, -0.003380415, 0.06975504, 0.0002128154, 0.0001301743, 1.829017E-06, -4.310968E-05, -3.02974E-06, 0.006013066, 3.997808E-06, 0.07488587, 0, -0.02353794
2.041324, -1.289596, 0.08635537, -32.72676, -0.003379731, 0.06975506, 0.0002125552, -0.0005000174, 1.611364E-06, 3.350184E-05, -6.070341E-06, 0.006025299, -2.507962E-05, 0.06379464, 0, -0.02353444
2.058152, -1.289596, 0.08645692, -32.72675, -0.003383944, 0.06975507, 0.0002125427, -0.0005000174, 1.611364E-06, 3.350184E-05, -6.070341E-06, 0.006025299, -2.507962E-05, 0.0621771, 0, -0.02353309
2.075172, -1.289595, 0.08655617, -32.72675, -0.003392574, 0.06975508, 0.0002127617, -0.001071635, 1.311163E-06, 0.0001040361, -8.732821E-06, 0.005805582, -5.155969E-05, 0.07604123, 0, -0.02352836
2.091462, -1.289594, 0.08664606, -32.72674, -0.003404259, 0.06975508, 0.000213163, -0.001577238, 9.075538E-07, 0.0001682392, -1.10265E-05, 0.005393103, -7.507263E-05, 0.06032856, 0, -0.02352902
2.108908, -1.289593, 0.08673511, -32.72673, -0.003420037, 0.06975508, 0.0002137862, -0.0020123, 5.079278E-07, 0.0002254544, -1.294132E-05, 0.004823849, -9.537552E-05, 0.06125274, 0, -0.0235338
2.124795, -1.289592, 0.08680852, -32.72672, -0.003436976, 0.06975508, 0.0002145167, -0.002373094, 8.76189E-08, 0.0002753384, -1.447347E-05, 0.004138261, -0.0001122573, 0.07719658, 0, -0.02353372
2.141503, -1.289591, 0.08687659, -32.72671, -0.003457122, 0.06975508, 0.0002154451, -0.002658515, -2.22783E-07, 0.0003169225, -1.55989E-05, 0.003374442, -0.0001256305, 0.06263927, 0, -0.0235398
2.158918, -1.289589, 0.08693544, -32.7267, -0.003480407, 0.06975507, 0.0002165829, -0.002658515, -2.22783E-07, 0.0003169225, -1.55989E-05, 0.003374442, -0.0001256305, 0.06448781, 0, -0.02353413
2.175031, -1.289587, 0.08697788, -32.72668, -0.00350354, 0.06975506, 0.000217771, -0.002868193, -4.610683E-07, 0.0003496398, -1.630334E-05, 0.002571389, -0.0001354468, 0.07465487, 0, -0.02352919
2.191908, -1.289586, 0.08701192, -32.72667, -0.003528685, 0.06975505, 0.0002191224, -0.002999984, -9.443602E-07, 0.0003750722, -1.664147E-05, 0.001771957, -0.0001415849, 0.06171492, 0, -0.0235242
2.208233, -1.289584, 0.0870347, -32.72666, -0.003553546, 0.06975503, 0.0002205153, -0.003052999, -1.043456E-06, 0.000390166, -1.648015E-05, 0.00101237, -0.0001439757, 0.06287028, 0, -0.02351881
2.225147, -1.289582, 0.08704835, -32.72664, -0.003579479, 0.06975502, 0.000222025, -0.003033314, -1.190164E-06, 0.000396199, -1.595597E-05, 0.0003150254, -0.0001429134, 0.07442386, 0, -0.02351519
2.241729, -1.28958, 0.08705267, -32.72662, -0.003604726, 0.06975501, 0.0002235507, -0.002948081, -1.278843E-06, 0.0003937359, -1.510702E-05, -0.000304386, -0.0001387425, 0.06287028, 0, -0.02351639
2.258186, -1.289578, 0.08704787, -32.72662, -0.00362915, 0.06975499, 0.0002250902, -0.002948081, -1.278843E-06, 0.0003937359, -1.510702E-05, -0.000304386, -0.0001387425, 0.06287028, 0, -0.02352269
2.274843, -1.289576, 0.08703504, -32.7266, -0.003652806, 0.06975498, 0.0002266426, -0.002804306, -1.247628E-06, 0.0003828632, -1.393859E-05, -0.0008332431, -0.0001317991, 0.07765877, 0, -0.02352858
2.29164, -1.289574, 0.08701614, -32.72659, -0.003675399, 0.06975495, 0.0002281837, -0.002611142, -1.266102E-06, 0.0003652631, -1.255736E-05, -0.001264364, -0.0001225314, 0.06333245, 0, -0.02352113
2.308145, -1.289572, 0.08699264, -32.72658, -0.003696149, 0.06975493, 0.0002296552, -0.002376288, -1.135827E-06, 0.0003408787, -1.094448E-05, -0.001597002, -0.0001113103, 0.0619461, 0, -0.02352253
2.325109, -1.28957, 0.08696444, -32.72657, -0.003715774, 0.06975491, 0.0002311046, -0.002109189, -9.951586E-07, 0.0003109739, -9.17976E-06, -0.001831591, -9.859448E-05, 0.07673458, 0, -0.02352149
2.341624, -1.289569, 0.08693408, -32.72655, -0.003733088, 0.0697549, 0.0002324386, -0.001818166, -7.036519E-07, 0.000275564, -7.253715E-06, -0.001974031, -8.478326E-05, 0.06425682, 0, -0.02351788
2.358109, -1.289567, 0.08690161, -32.72654, -0.003748196, 0.0697549, 0.0002336588, -0.001818166, -7.036519E-07, 0.000275564, -7.253715E-06, -0.001974031, -8.478326E-05, 0.0619461, 0, -0.02351651
2.37505, -1.289566, 0.08686738, -32.72654, -0.003761405, 0.06975488, 0.0002347921, -0.001512211, -6.863388E-07, 0.0002380101, -5.332941E-06, -0.002029076, -7.031569E-05, 0.07349951, 0, -0.0235223
2.391544, -1.289565, 0.08683424, -32.72653, -0.003772164, 0.06975487, 0.000235771, -0.001199634, -3.704881E-07, 0.0001971601, -3.354557E-06, -0.002005935, -5.557725E-05, 0.07234415, 0, -0.0235288
2.40818, -1.289564, 0.0868017, -32.72652, -0.003780958, 0.06975487, 0.0002366262, -0.0008905887, -1.004046E-07, 0.000154823, -1.419911E-06, -0.00191161, -4.105344E-05, 0.06171492, 0, -0.02353036
2.424923, -1.289563, 0.08677049, -32.72652, -0.003787742, 0.06975486, 0.0002373479, -0.0005907462, 8.70341E-09, 0.0001130007, 4.215676E-07, -0.001759186, -2.700722E-05, 0.07396169, 0, -0.02352866
2.441417, -1.289562, 0.08674181, -32.72652, -0.003792461, 0.06975487, 0.0002379224, -0.0003049386, 2.022562E-07, 7.169545E-05, 2.1808E-06, -0.001563638, -1.365337E-05, 0.07488587, 0, -0.0235284
2.458229, -1.289562, 0.08671541, -32.72651, -0.003795066, 0.06975488, 0.0002383447, -0.0003049386, 2.022562E-07, 7.169545E-05, 2.1808E-06, -0.001563638, -1.365337E-05, 0.06356346, 0, -0.02352836
2.474966, -1.289562, 0.08669276, -32.72651, -0.003795647, 0.06975487, 0.0002386087, -3.860047E-05, 3.397768E-07, 3.210232E-05, 3.799498E-06, -0.001334265, -1.243202E-06, 0.06171492, 0, -0.02352989
2.491661, -1.289561, 0.08667333, -32.72652, -0.003794552, 0.06975488, 0.0002387318, 0.0002053266, 5.604697E-07, -6.015911E-06, 5.320594E-06, -0.001092151, 1.009646E-05, 0.07604123, 0, -0.02353322
2.508148, -1.289561, 0.0866573, -32.72652, -0.003791964, 0.06975488, 0.0002387213, 0.0004233781, 5.938377E-07, -4.074246E-05, 6.643042E-06, -0.0008428693, 2.020608E-05, 0.0619461, 0, -0.02353434
2.524849, -1.289562, 0.08664434, -32.72652, -0.00378795, 0.06975489, 0.000238587, 0.0006142603, 5.181164E-07, -7.109753E-05, 7.748758E-06, -0.0005965829, 2.903329E-05, 0.0619461, 0, -0.02353879
2.541668, -1.289562, 0.08663472, -32.72652, -0.003782619, 0.06975489, 0.0002383368, 0.0007762974, 7.711778E-07, -9.936591E-05, 8.742666E-06, -0.0003625304, 3.651463E-05, 0.07511704, 0, -0.02353748
2.558168, -1.289562, 0.08662876, -32.72653, -0.003776171, 0.0697549, 0.0002379657, 0.0007762974, 7.711778E-07, -9.936591E-05, 8.742666E-06, -0.0003625304, 3.651463E-05, 0.06564318, 0, -0.02354032
2.575168, -1.289563, 0.08662583, -32.72653, -0.003768493, 0.06975491, 0.0002374777, 0.0009117482, 6.32358E-07, -0.0001228369, 9.540603E-06, -0.0001413822, 4.275158E-05, 0.06287028, 0, -0.02353951
2.591691, -1.289563, 0.08662581, -32.72654, -0.00376027, 0.06975491, 0.0002369206, 0.001019798, 6.210771E-07, -0.0001424268, 1.014865E-05, 6.227195E-05, 4.771509E-05, 0.07465487, 0, -0.02354151
2.608247, -1.289564, 0.08662825, -32.72654, -0.00375143, 0.06975492, 0.0002362938, 0.001100179, 5.546526E-07, -0.0001576548, 1.056161E-05, 0.0002390146, 5.138992E-05, 0.06587417, 0, -0.02354033
2.62497, -1.289565, 0.08663292, -32.72655, -0.003742026, 0.06975493, 0.0002356021, 0.001153276, 5.145098E-07, -0.0001687811, 1.078865E-05, 0.0003895313, 5.379746E-05, 0.0624081, 0, -0.02353117
2.641639, -1.289566, 0.08663958, -32.72656, -0.003732317, 0.06975494, 0.0002348646, 0.001179506, 5.506986E-07, -0.0001764394, 1.086276E-05, 0.0005084127, 5.495854E-05, 0.07465487, 0, -0.0235286
2.658555, -1.289567, 0.08664823, -32.72657, -0.003722266, 0.06975495, 0.0002340714, 0.001179506, 5.506986E-07, -0.0001764394, 1.086276E-05, 0.0005084127, 5.495854E-05, 0.07442386, 0, -0.023524
